0.442643,0.0212483,0.82777,0.136564,0.100436,0.57631,1.56044,0.487278,0.539978,0.443503,0.047788,2.42078,0.362811,0.0212323,0.191878,0.312076,0.24426,0.757491,0.242986,0.220575,0.156911,0.221666,0.511444,1.05105,0.00961979,0.501956,1.86995,0.191568,0.233937,0.246411,0.508669,0.748187,0.486937,0.098733,0.57047,0.0268518,0.520942,0.286432,0.528628,0.039349,0.42312,0.893526,0.580649,0.412205,0.183728,0.422533,0.320787,0.104562,0.476043,0.0994287,0.517404,0.0714199,0.104329,0.210077,0.276173,0.0392279,0.544688,0.186652,0.0929272,0.514794,0.17686,0.904615,0.223482,0.0475558,0.0299059,0.0842586,0.465503,0.384513,0.91819,0.178617,0.483797,0.602797,0.545966,0.308934,0.247251,1.43326,0.852069,0.145699,0.0559512,0.0729139,0.0876761,0.57689,0.340958,0.437581,0.580839,0.116262,0.504745,0.283732,0.292969,0.258203,0.170835,0.482123,0.185554,0.229239,0.217125,0.118763,0.0959274,0.34153,0.535163,0.200353,0.0108967,0.203607,0.0283706,1.24106,0.0803563,0.832676,0.134651,0.250859,0.158416,0.14487,0.534393,0.275255,0.3167,0.072261,0.219209,0.0384534,0.219295,0.132784,0.44665,1.01968,0.210622,0.274813,0.488526,0.210488,0.143211,0.399657,0.0835067,0.0579562,2.46939,0.268613,0.534679,0.271475,1.05985,0.224712,0.255578,0.0316877,0.224042,0.345641,0.395898,0.269504,0.339396,0.167993,0.451147,0.235754,0.0571767,1.0018,0.245078,0.19589,0.264454,0.170126,0.0971113,0.226238,0.0519067,0.749118,0.13006,0.526246,0.135984,0.102613,0.342577,0.292232,0.0666986,0.144229,0.206651,0.130381,0.706036,0.233447,0.118045,0.229283,0.537727,1.57653,0.0979041,0.433616,0.455883,0.115846,0.313779,0.345918,0.685113,0.516739,0.137311,0.98065,0.38971,0.326291,0.10083,0.209614,0.687485,0.230359,0.0726325,0.33068,0.0423201,0.23638,0.363661,0.0413321,0.280372,1.2599,0.240755,0.142531,0.448941,0.323008,1.7651,0.25053,0.0934634,0.5491,0.124743,0.1568,1.78584,1.18797,0.196572,0.131503,0.306163,0.176782,0.390104,1.67936,0.240716,0.157432,0.0197004,0.0276847,0.419149,0.00507672,0.0985942,0.595813,0.200096,0.163893,0.393703,0.307552,0.138507,0.19951,0.159163,0.0600762,0.203352,0.18388,0.321763,0.096369,0.382107,0.129786,0.410231,1.03783,0.981901,0.67385,0.46729,0.402731,0.164425,0.159068,0.334342,0.18958,0.255384,0.179597,0.0956036,0.280119,0.458646,0.421823,0.598386,0.0455429,0.187498,0.505157,0.510701,0.465685,0.141257,0.650974,0.188419,0.171676,0.597301,0.793842,0.63662,0.246375,0.180149,0.37165,0.887964,0.762095,0.276123,0.713545,0.123493,0.270774,0.204661,0.64552,0.0564956,0.997556,0.322513,0.11229,0.159345,0.0362425,0.543486,0.143148,0.384666,0.031292,0.276395,0.188746,0.1825,0.34627,0.0366917,0.214723,1.04738,0.759647,1.36497,0.976122,0.101099,0.0958598,0.194227,0.119991,0.804191,0.0725434,0.229532,0.129633,0.487624,0.284895,0.0545044,0.03519,0.714457,0.243196,0.973754,0.141123,0.468513,0.569657,0.0639226,0.134555,0.194069,0.648948,0.342559,0.372488,0.282876,0.421017,0.0361045,0.0706124,0.424394,0.255173,0.194888,0.0724552,0.794475,0.214701,0.468884,0.106934,0.0483122,0.325217,0.22984,0.252899,0.364811,0.313042,0.0745482,0.00628022,0.0942914,0.396745,0.0585438,0.549642,0.237835,0.182042,0.103584,0.0864078,0.0668056,0.614573,0.195462,0.0943037,0.113077,0.130181,0.024265,0.0365121,0.227733,0.260035,0.00264591,0.102365,0.371411,0.0182402,0.523706,0.566242,1.91398,0.337841,0.0553834,0.23921,0.178258,0.0209839,0.49329,0.202313,0.136227,0.0355454,0.0476698,1.06563,0.329338,0.0,1.11587,0.196038,0.286045,0.544917,0.0733117,0.263935,0.112095,0.100588,0.695197,0.17582,0.0896279,0.0673599,0.197591,0.413903,0.214326,0.335496,0.104622,0.0397511,0.116292,0.127708,0.058279,0.341856,0.20207,0.281991,0.215494,0.251641,0.269803,0.0429315,0.306384,0.268855,0.0331393,0.305208,0.245375,0.128208,0.363887,0.337062,0.326851,0.0517258,0.257483,0.291571,0.0704342,0.0855443,0.150062,0.164653,0.349634,0.261867,0.154394,0.329189,0.0309705,0.167419,0.0683288,0.728933,0.256201,0.289416,0.05455,0.309979,0.211155,0.0817516,0.429961,0.236254,0.159322,0.128645,0.0259617,0.593161,0.526681,0.248904,0.0329176,0.687169,0.163742,0.35809,0.0646806,0.0905188,0.028447,0.258251,0.233654,0.10606,0.224943,0.656112,0.346989,0.185491,0.663558,0.0779882,0.266018,0.0870141,0.270385,0.124548,0.0943502,0.376973,0.179223,0.396882,0.493035,0.468251,0.225346,0.0127065,0.33016,0.0262012,0.125743,0.134252,0.679838,0.162163,0.316654,0.0331313,0.161801,0.247471,0.194063,0.112531,0.335657,0.111731,0.286609,0.0148812,0.353833,0.399226,0.0375806,0.138585,0.537282,0.0448732,0.134081,0.024568,0.0776599,0.0762408,0.0252806,0.264967,0.0107245,0.146183,0.0118698,0.307823,0.149415,0.158355,0.168883,0.0934926,0.200545,0.187644,0.483549,0.162868,0.131255,0.0723166,0.100443,0.0651561,0.407979,0.068138,0.171347,0.0106601,0.212804,0.095322,0.128201,0.274306,0.0190703,0.18279,0.0447934,0.277554,0.0775148,0.0579838,0.293804,0.0519193,0.0202073,0.151644,0.368351,0.15212,0.444366,0.0197586,0.211178,0.101139,0.175014,0.0435225,0.540728,0.0332647,0.174969,0.217266,0.176226,0.181599,0.243235,0.0345772,0.242383,0.0419833,0.157242,0.052996,0.0712298,0.119945,0.105838,0.395422,0.547803,0.442644,0.0600336,0.0151516,0.301012,0.116704,0.0637754,0.0503519,0.0719809,0.205896,0.196384,0.134882,0.101466,0.0420429,0.0194112,0.41921,0.319421,0.481195,0.0193275,0.213549,1.09729,0.0745718,0.267034,0.168873,0.124304,0.131907,0.0266028,0.231309,0.700435,0.228501,0.169616,0.279416,0.400255,0.360586,0.272487,0.424809,0.255135,0.238125,0.0849918,0.10753,0.469929,0.367638,0.143386,0.168373,0.006156,0.122926,0.420046,0.0883273,0.673309,0.622806,0.414294,0.0150954,0.174987,0.0808519,0.144502,0.598513,0.0614572,0.424869,0.200253,0.440242,0.354689,0.0566843,0.226496,0.0380941,0.108146,0.380375,0.0422531,0.138194,0.244083,0.110578,0.279197,0.130517,0.259929,0.872932,0.154512,0.179564,0.161574,0.186421,0.270189,0.0886585,0.232956,0.158004,0.306373,0.210669,0.0167179,0.236439,0.207813,0.449358,0.0405081,0.0286356,0.110486,0.289141,0.394106,0.802429,0.389693,0.290135,0.402135,0.114128,0.304414,0.165625,0.474844,0.0850168,0.59809,0.454841,0.0302499,0.110091,0.2929,0.0401541,0.364364,0.0271413,0.287887,0.216139,0.078421,0.12246,0.385812,0.105126,0.179074,0.128251,0.175,0.153674,0.262124,0.186624,0.166029,0.304333,0.189855,0.0987236,0.702211,0.0700212,0.250297,0.329928,0.877789,0.0701846,0.137392,0.0951166,0.399909,0.0299133,0.289449,0.0817942,0.101274,0.218611,0.0106047,0.176014,0.287776,0.0333666,0.218404,0.0267571,0.194881,0.294678,0.480113,0.102737,0.342632,0.361888,0.347914,1.11389,0.0746479,0.00257527,0.214928,0.0875507,0.452086,0.580421,0.159762,0.123213,0.469831,0.26692,0.116622,0.240047,0.234898,0.110641,0.0926717,0.0754076,0.151454,0.173975,0.0533003,0.0583374,0.136546,0.257819,0.0303077,0.0374619,0.0988038,0.28882,0.0813823,0.111594,0.107557,0.239206,0.183111,0.109876,0.897859,0.0643192,0.0207582,0.114118,0.00400694,0.372761,0.143772,0.57148,0.065312,0.141859,0.0507565,0.332055,0.18488,0.715994,0.108904,0.341298,0.0217428,0.503637,0.293375,0.274676,0.0420341,0.214597,0.159801,0.186619,0.195577,0.0463055,0.202822,0.54942,0.0342964,0.148266,0.643821,0.0161809,0.522916,0.221173,0.276517,0.192176,0.108615,0.108154,0.0599466,0.285068,0.215123,0.324188,0.314525,0.188678,0.377351,0.115406,0.0525934,0.822422,0.0587693,0.0779211,0.0787717,0.0865569,0.138979,0.134191,0.160717,0.213048,0.778694,0.20464,0.0459109,0.0893341,0.217098,0.192224,0.0749085,0.110771,0.102717,0.395607,0.115707,0.582075,0.180388,0.176962,0.681274,0.116842,0.0986231,0.31434,0.26982,0.251748,0.0521896,0.0326431,0.291372,0.234188,0.0132416,0.112833,0.237606,0.105505,0.204615,0.253468,0.0965275,0.0447919,0.0786499,0.19373,0.0131228,1.02321,0.153209,0.659658,0.323285,0.132443,0.00203644,0.225454,0.0657798,0.279816,0.322203,0.152172,0.118422,0.249652,0.405837,0.3508,0.209923,0.204999,0.405574,0.411652,0.164965,0.00169601,0.311964,0.289899,0.107527,0.0592449,0.116837,0.209694,0.502641,0.0342,0.129934,0.113745,0.518293,0.0223389,0.966661,0.04215,0.103967,0.117703,0.159401,0.207792,0.105246,0.330417,0.489011,0.152239,0.0995121,0.119796,0.289562,0.0374915,0.36008,0.0192752,0.386968,0.104815,0.314691,0.178612,0.0405219,0.168459,0.333274,0.325903,0.151257,0.0253191,0.198652,0.903008,0.163833,0.324458,0.216934,0.11148,0.100026,0.195762,0.22395,0.0140506,0.32216,0.0656421,0.26275,0.541021,0.0834558,0.185263,0.340279,0.255358,0.0663206,0.0132526,0.325977,0.199852,0.420333,0.0206538,0.0699062,0.091759,0.545493,0.258249,0.769783,0.485322,0.104753,0.0216209,0.0457798,0.197851,0.128004,0.472185,0.0576735,0.11166,0.813706,0.159873,0.0560561,0.23955,0.145524,0.0281271,0.0802837,0.128747,0.387953,0.219796,0.438479,0.219766,0.0293834,0.0231802,0.369341,0.498004,0.034323,0.277972,0.24123,0.189686,0.227475,0.203889,0.128758,0.160995,0.169073,0.0427362,0.148978,0.180141,0.203307,0.622003,0.109712,0.0670223,0.134941,0.157636,0.122456,0.313842,0.143743,0.352477,0.196887,0.491185,0.200192,0.16513,0.0660436,0.595493,0.107878,0.027419,0.243651,0.0571352,0.0439691,0.0503471,0.273951,0.0581551,0.11136,0.649427,0.242482,0.0849025,0.22763,0.107247,0.629113,0.155148,0.188779,0.148153,0.0220485,0.320844,0.224143,0.338891,0.360262,0.194631,0.327449,0.202209,0.206432,0.0470992,0.026303,0.757807,0.0462031,0.174192,0.142968,0.308255,0.0216317,0.085741,0.24171,0.251401,0.0358126,0.607526,0.0312184,0.0611666,0.43248,0.0983674,0.0813367,0.00565306,0.258696,0.255173,0.227876,0.0976807,0.162432,0.034406,0.0133245,0.14714,0.124513,0.095142,0.124172,0.152658,0.0800484,0.308025,0.290708,0.021068,0.312424,0.27925,0.401672,0.0452978,0.328014,0.270408,0.229566,0.247361,0.274722,0.0634615,0.0188561,0.158626,0.242344,0.0648137,0.17359,0.588432,0.0621027,0.0909942,0.105998,0.152162,0.150681,0.279439,0.528573,0.0952569,0.0322718,0.307445,0.272528,0.0303205,0.360465,0.242552,0.801855,0.182033,0.0946774,0.191325,1.3498,0.360551,0.49166,0.325362,0.335275,0.214229,0.429288,0.570132,0.118834,0.472392,0.025409,0.310828,0.105277,0.143306,0.101763,0.280149,0.0962441,0.104163,0.722812,0.170482,0.00820274,0.866782,0.115376,0.036413,0.082846,0.0136027,0.790072,0.522002,0.427287,0.237271,1.8289,0.366518,0.0291438,0.613505,0.435588,0.0526704,0.0341811,0.488751,0.0431278,0.868841,0.133541,0.368327,1.5127,0.947875,0.963927,0.566353,0.0123934,0.385977,0.406209,0.0973469,0.0934296,0.0401642,0.106899,0.993969,0.0111093,0.0295143,0.513757,0.964465,0.865205,0.692328,0.190692,0.00840519,0.0661282,0.267436,0.373539,0.156022,0.899727,0.0354389,0.149923,0.00596442,0.0872747,0.331541,0.032321,0.696299,0.22944,0.0816416,0.407749,0.485192,0.33598,0.115574,0.357971,0.893599,1.08488,1.64409,1.52543,0.698008,0.842897,0.0582775,0.430568,0.193275,0.0709784,0.00451592,0.540678,0.39872,0.281306,0.000571309,0.0917928,0.197965,0.579959,0.0103728,0.306197,0.123939,0.278222,0.840087,0.598737,0.246409,0.00463231,0.382248,1.28359,0.0652665,0.219084,0.23463,0.0822084,0.736389,0.333177,0.615838,0.454963,0.000293882,0.114099,1.14092,0.589183,0.176711,0.226068,0.125826,1.18879,0.417555,0.584231,0.0408896,0.863754,0.0517698,0.328848,0.211456,0.624261,0.337266,0.324493,0.612989,0.0400741,0.00207978,0.0134226,0.414899,0.141226,0.168067,0.107059,0.0671197,0.0340347,0.0148051,0.0962484,0.0,0.853591,0.043395,0.180846,0.153502,0.00902818,0.0325777,0.464397,0.0549685,0.318858,0.151026,0.248527,0.0692516,0.000641524,0.423866,0.0253276,0.623349,0.0563404,0.184878,0.491798,0.339331,0.380936,0.452047,0.0846787,0.0931571,0.191658,0.234354,0.401711,0.138565,0.21471,3.10843,0.0175696,0.0614629,0.258078,0.0716466,0.138748,0.224871,0.0930773,0.209047,0.327485,0.640799,0.525172,0.00646825,0.0459309,0.0220638,0.533127,0.114801,0.0335565,0.311775,0.0182002,0.0234687,0.0217329,0.39224,0.0719021,0.127556,0.0760768,0.0368414,0.562424,0.422571,0.784946,0.351804,0.157886,0.0,0.359198,0.110501,0.415879,0.0214729,0.0315183,0.200382,0.489483,0.00317164,0.020016,0.0316758,0.565887,0.125693,0.00011142,0.223035,0.401391,0.968358,0.00841434,0.400456,1.59431,0.269163,0.0376545,0.493633,0.354391,0.722964,0.403883,0.319889,0.00682253,0.0297896,0.0498589,0.0272848,0.247428,0.0310468,0.0612275,0.00914467,0.022421,0.690114,0.012997,0.690159,0.0129979,0.555572,0.0657053,0.269801,0.00940632,0.792912,0.114498,0.741717,0.121083,0.640398,0.225507,1.57357,0.0129714,0.278025,0.373943,0.00541146,0.12326,1.1897,0.0291728,0.0727827,0.177822,0.397319,0.0108658,0.231107,0.0967881,0.0527432,0.0,0.19684,0.060502,0.813588,0.210906,0.00447076,0.860183,0.929754,0.807914,0.0305385,0.352026,0.208352,0.180912,0.0465902,0.129659,0.0549178,0.174391,0.0273744,0.00409825,0.19643,0.302522,0.556843,0.149803,0.477797,0.0100356,0.543197,0.139429,0.203189,0.0131493,0.187349,0.232074,0.196517,1.37611,1.34191,0.164842,0.00799724,0.845054,0.160175,0.179947,0.00163595,0.0938379,0.159874,1.14704,0.03519,1.59827,0.143682,0.0964911,0.0154789,0.828108,0.0070313,0.425016,0.0102235,1.58078,0.224909,0.0590124,0.00714736,0.155689,0.509189,0.363062,0.0595535,0.879163,0.0384586,0.235675,0.0094108,0.061749,0.0979592,0.244849,0.233866,0.0026744,0.0885859,0.513548,0.752992,0.0571917,0.129187,0.0944399,0.85603,0.0017316,1.40802,0.0146093,0.206859,0.0634009,0.559683,0.000338447,0.0855258,0.47255,0.133986,0.376441,0.010414,0.457791,0.220158,0.920299,1.96889,1.226,0.0442645,0.0,1.5224,0.0,0.119062,0.0246316,0.239035,0.00508941,0.0595588,0.0589482,2.04492,0.140278,0.050595,0.390558,0.0364294,0.000588706,0.0246713,0.0382522,0.134053,0.976265,0.263625,0.215815,0.100132,0.0650467,0.746452,0.00894582,0.367955,0.990199,0.0853328,0.375988,0.0314148,0.0315178,0.0585037,0.353094,0.0387528,0.0059434,0.644274,0.222578,0.259764,0.107849,0.00851338,0.646286,0.386835,0.0973815,0.0503382,0.0195486,0.0214054,0.0,0.23198,0.0705473,0.582711,0.235777,0.0315836,0.473796,0.285803,0.096421,0.239185,0.239493,1.33106,0.138406,0.0973009,0.830079,0.840948,0.17698,1.06387,0.00146293,0.0412393,0.854176,0.59617,0.699199,0.201259,0.117298,0.179054,0.00220729,1.37433,0.0,0.698817,0.301026,0.455527,0.418688,0.397548,0.553235,0.06889,0.0664308,0.0810336,0.136014,0.0694695,0.590548,0.180943,0.570336,0.03462,0.00282774,0.188356,0.469385,0.0698991,0.0491979,0.0,0.436472,0.26546,0.311874,0.031549,0.217697,0.0291612,0.065484,0.147182,0.11783,0.500339,0.0975392,1.0825,0.337399,0.967458,0.420814,0.275078,0.685997,0.00552401,0.0105603,0.607447,0.556006,0.159626,0.541187,1.73849,0.0568553,1.01989,0.223347,0.0787736,0.0475287,0.0128286,0.0663363,0.505221,2.02365,0.0,0.176398,0.108856,0.455229,1.43853,0.024419,0.206474,0.19669,0.788099,0.171164,0.0460709,0.172248,0.598891,0.0892984,0.555065,0.268435,0.134282,0.312014,0.64128,0.0399219,0.307216,0.60093,0.0880755,0.143245,0.00199629,0.132599,0.444083,0.359231,0.596145,0.0942968,0.378758,0.130292,0.354513,0.299055,0.0109231,0.108315,0.00610414,0.64955,0.110597,0.620469,0.216,0.00489721,1.19797,0.676286,0.0657855,0.0467495,1.17107,0.0293677,0.509374,0.174955,0.420413,0.116295,0.3518,0.314383,2.6502,0.829371,0.0751897,0.0235493,0.0770704,0.0653273,0.010933,0.0271777,0.718062,1.22475,0.0,0.363852,0.379023,0.0654994,0.24642,0.230574,0.0337414,0.0166804,0.151387,0.0,1.06196,0.465599,0.266664,0.0742443,0.0823187,0.024645,0.0723316,0.578248,0.131966,0.174596,0.054957,0.705808,0.2254,0.0942015,0.224948,0.00381994,0.0337777,0.0563215,0.143129,0.322183,0.0992111,0.0845456,0.147511,0.0862429,0.735748,0.264038,0.151853,0.535624,0.595681,0.49523,0.057788,0.0,0.0167886,0.381833,0.261828,0.632911,0.337623,0.663316,0.370829,0.182743,0.0436316,1.60305,0.399326,0.86128,0.283291,0.114568,0.00642669,0.00776289,0.238135,0.533376,0.152084,0.116632,0.179099,0.0106976,0.70994,0.301266,0.548094,0.104206,0.009385,0.182281,0.4602,0.021642,0.165677,0.184372,0.0350703,0.944944,0.509891,0.00115715,0.635275,0.882225,0.14262,2.05479,1.22649,0.163345,0.382532,0.000527138,0.0972858,0.220395,0.364655,0.0641368,0.293198,0.372822,0.540872,1.8829,0.186208,0.207058,0.477923,1.16628,0.0448402,0.239067,0.509422,0.553629,0.123428,0.061312,0.0846132,0.279229,0.382697,0.0737072,0.595416,0.00737851,1.49806,0.333644,0.685055,0.432787,0.0743468,0.037468,0.016109,1.395,0.045071,0.00184629,0.0818561,0.0489866,0.00827172,0.490642,0.101903,0.0355427,0.015065,0.0162258,0.0155908,0.518269,0.250982,0.406275,0.0865379,0.0,0.00557008,0.0326535,0.00322901,0.272984,0.0930851,0.0121478,0.0816747,0.0913711,0.176704,0.660195,0.487761,0.0,0.384212,0.150451,0.158202,0.420127,0.328831,0.477913,0.591918,0.519256,0.16342,0.636811,0.1112,0.101692,0.123552,0.10912,0.114772,0.118034,0.975765,0.620931,0.0581523,0.836963,0.166679,1.60011,0.0258504,0.386124,0.084985,0.332403,0.311157,0.0952019,0.152083,0.613173,0.368959,0.00918098,0.0266898,0.6922,0.396959,0.230827,0.269073,0.0969137,0.127957,0.349334,2.10346,0.302988,0.192324,0.106998,0.0598238,0.581362,0.126823,0.750377,0.888636,0.597528,0.150199,0.0267959,1.04879,0.373932,0.00372596,0.0556823,0.159139,0.0923676,0.652511,0.120142,0.0502907,0.0448712,0.2552,1.6158,0.332669,0.859494,0.114045,0.472868,0.534755,0.00281927,0.520362,1.20226,0.51596,0.160256,0.0467507,0.132191,0.570794,0.37908,0.181366,0.753749,0.142048,0.188129,0.03706,0.203552,0.166078,0.103975,0.572857,0.497107,0.515643,0.667062,0.239846,0.0736334,0.570871,0.235153,0.151352,0.252728,0.429978,0.860622,0.502092,0.520243,0.54581,0.26843,0.622122,0.0687323,0.0183372,0.300546,0.590274,0.191352,1.50736,0.390996,0.781531,0.287681,0.851727,1.05334,0.331731,0.103415,1.15495,0.553118,0.388116,0.685412,0.573286,1.49206,1.05522,0.148367,0.154676,0.158611,0.652759,0.326075,0.196361,0.566928,0.236325,0.301034,0.738075,0.900721,0.167223,0.71716,0.29678,0.486567,0.0964381,0.155092,1.12781,1.23963,0.13005,1.22345,0.52447,0.998992,0.626169,0.110828,0.204494,0.426883,0.179642,0.132296,0.425238,0.266938,0.371527,0.0180054,0.0530665,0.344321,0.0905166,0.373919,0.0597166,0.665993,0.12584,0.448404,0.489355,0.381602,0.228125,0.546151,0.404723,1.06037,0.0,0.762435,0.590206,0.564454,0.12959,0.121705,1.45024,0.365076,0.485393,0.847002,0.0909352,0.700359,0.226009,0.0691737,0.121724,0.882772,2.31518,0.0750904,0.269527,0.340428,0.259475,0.0827339,0.796624,0.189323,0.244945,1.36299,0.42016,0.111178,0.314828,0.23478,0.0212824,0.0109543,0.286561,0.639265,0.533886,0.145165,0.717311,0.136048,0.753663,0.587337,0.359772,0.468578,0.336877,0.345223,0.069791,0.241742,0.193191,0.386828,0.0946535,0.172322,0.0309433,0.310316,0.712664,0.0605037,0.143967,0.405804,0.264462,0.077122,0.434699,0.441432,0.447492,0.390807,0.486167,0.160851,0.217772,2.24238,0.142945,0.850557,0.12336,0.143933,1.23066,0.0759763,0.0553846,0.102738,0.466919,0.838806,0.191386,0.0317263,0.277853,0.0860552,0.984287,0.179707,0.630154,0.523091,0.139486,0.159419,0.332859,0.127914,0.808881,0.338352,0.0518105,0.00623166,1.16299,0.131722,0.406051,0.0420584,0.28747,0.201009,0.154031,0.55368,1.30935